Depth (m),Flow (m3/s),,
Depth,Type AA,Type AB,Type AC
0,0,0,0
0.014,0.014,0.0487,0.0487
0.02,0.02,0.0634,0.0609
0.03,0.03,0.0872,0.0812
0.04,0.04,0.112,0.103
0.05,0.05,0.135,0.124
0.06,0.06,0.16,0.147
0.07,0.07,0.185,0.17
0.08,0.08,0.212,0.193
0.09,0.09,0.239,0.216
0.1,0.1,0.267,0.24
0.11,0.11,0.295,0.265
0.12,0.12,0.322,0.293
